
Vds =1.2,Tox =2e-09,NA =500000000000000000000000,Phi_m =4.1,Qox =1e-05,mu =0.04,l =1e-05,w =1e-05
Vcb (0),Shi_s (0)
0.01,2.60924507155793e-7
0.060000000000000005,1.39414107080876e-6
0.11000000000000001,7.46781362644597e-6
0.16000000000000003,3.93010902237053e-5
0.21000000000000002,0.000181946257660149
0.26,0.000680774493983466
0.31,0.00185316425747122
0.36,0.00390993004157685
0.41,0.00709053695885879
0.45999999999999996,0.0114260439749487
0.51,0.0168209242719770
0.56,0.0237304481117191
0.6100000000000001,0.0319341648346813
0.6600000000000001,0.0414661905653607
0.7100000000000002,0.0523556076342449
0.7600000000000002,0.0643275633482384
0.8100000000000003,0.0781715647288809
0.8600000000000003,0.0933692801153483
0.9100000000000004,0.109922788149812
0.9600000000000004,0.127834084460291
1.0100000000000005,0.147105087037381
1.0600000000000005,0.168224662862840
1.1100000000000005,0.190587431105421
1.1600000000000006,0.214423147058998
1.2100000000000006,0.239734629401008
1.2600000000000007,0.266523538433086
1.3100000000000007,0.294790507300228
1.3600000000000008,0.324535123397666
1.4100000000000008,0.355755114438484
1.4600000000000009,0.388441043965761
1.510000000000001,0.422548973942668
1.560000000000001,0.458978250819799
1.610000000000001,0.495647006274387
1.660000000000001,0.532902230210795
1.710000000000001,0.570603882485642
1.7600000000000011,0.608653759411389
1.8100000000000012,0.647091094084544
1.8600000000000012,0.685556245531767
1.9100000000000013,0.724214621296928
1.9600000000000013,0.763029979043102
2.010000000000001,0.802240973475770
2.060000000000001,0.841124029710165
2.1100000000000008,0.880156776560166
2.1600000000000006,0.919335767215970
2.2100000000000004,0.958657127798644
2.2600000000000002,0.998116584850324
2.31,1.03884478484558
2.36,1.07854107376451
2.4099999999999997,1.11830826437193
2.4599999999999995,1.15814565958412
2.5099999999999993,1.19805342899035
2.559999999999999,1.23803239283226
2.609999999999999,1.27808383295059
2.659999999999999,1.31820932667695
2.7099999999999986,1.35841060075064
2.7599999999999985,1.39768556085891
2.8099999999999983,1.43771849268554
2.859999999999998,1.47776638351663
2.909999999999998,1.51782476686459
2.9599999999999977,1.55788925969932

Vds =2.074744318181818,Tox =2e-09,NA =500000000000000000000000,Phi_m =4.1,Qox =1e-05,mu =0.04,l =1e-05,w =1e-05
Vcb (1),Shi_s (1)
0.01,2.60924507155793e-7
0.060000000000000005,1.39414107080876e-6
0.11000000000000001,7.46781362644597e-6
0.16000000000000003,3.93010902237053e-5
0.21000000000000002,0.000181946257660149
0.26,0.000680774493983466
0.31,0.00185316425747122
0.36,0.00390993004157685
0.41,0.00709053695885879
0.45999999999999996,0.0114260439749487
0.51,0.0168209242719770
0.56,0.0237304481117191
0.6100000000000001,0.0319341648346813
0.6600000000000001,0.0414661905653606
0.7100000000000002,0.0523556076342449
0.7600000000000002,0.0643275633482388
0.8100000000000003,0.0781715647288825
0.8600000000000003,0.0933692801153575
0.9100000000000004,0.109922788149866
0.9600000000000004,0.127834084460600
1.0100000000000005,0.147105087039165
1.0600000000000005,0.168224662873171
1.1100000000000005,0.190587431165405
1.1600000000000006,0.214423147408050
1.2100000000000006,0.239734631436489
1.2600000000000007,0.266523550327209
1.3100000000000007,0.294790576936943
1.3600000000000008,0.324535531775857
1.4100000000000008,0.355757510125618
1.4600000000000009,0.388454995989093
1.510000000000001,0.422625964200133
1.560000000000001,0.459333193212123
1.610000000000001,0.496769675466302
1.660000000000001,0.535734421825463
1.710000000000001,0.576229504307624
1.7600000000000011,0.618256494334830
1.8100000000000012,0.661816452142287
1.8600000000000012,0.706909918972141
1.9100000000000013,0.753536912914707
1.9600000000000013,0.801696929038582
2.010000000000001,0.851388944234152
2.060000000000001,0.902611426978386
2.1100000000000008,0.955362351959277
2.1600000000000006,1.00963921883175
2.2100000000000004,1.06543907121984
2.2600000000000002,1.12275849378984
2.31,1.18329873560523
2.36,1.24402165230974
2.4099999999999997,1.30630048745855
2.4599999999999995,1.37008511008332
2.5099999999999993,1.43518414540018
2.559999999999999,1.50124541956219
2.609999999999999,1.56797126127596
2.659999999999999,1.63509819454617
2.7099999999999986,1.70272038732520
2.7599999999999985,1.77037716277374
2.8099999999999983,1.83826892242630
2.859999999999998,1.90635032827519
2.909999999999998,1.97487216966418
2.9599999999999977,2.04305933725854

Vds =3.567102272727273,Tox =2e-09,NA =500000000000000000000000,Phi_m =4.1,Qox =1e-05,mu =0.04,l =1e-05,w =1e-05
Vcb (2),Shi_s (2)
0.01,2.60924507155793e-7
0.060000000000000005,1.39414107080876e-6
0.11000000000000001,7.46781362644597e-6
0.16000000000000003,3.93010902237053e-5
0.21000000000000002,0.000181946257660149
0.26,0.000680774493983466
0.31,0.00185316425747122
0.36,0.00390993004157685
0.41,0.00709053695885879
0.45999999999999996,0.0114260439749487
0.51,0.0168209242719770
0.56,0.0237304481117191
0.6100000000000001,0.0319341648346813
0.6600000000000001,0.0414661905653606
0.7100000000000002,0.0523556076342449
0.7600000000000002,0.0643275633482388
0.8100000000000003,0.0781715647288825
0.8600000000000003,0.0933692801153575
0.9100000000000004,0.109922788149866
0.9600000000000004,0.127834084460600
1.0100000000000005,0.147105087039165
1.0600000000000005,0.168224662873171
1.1100000000000005,0.190587431165405
1.1600000000000006,0.214423147408050
1.2100000000000006,0.239734631436489
1.2600000000000007,0.266523550327209
1.3100000000000007,0.294790576936943
1.3600000000000008,0.324535531775857
1.4100000000000008,0.355757510125618
1.4600000000000009,0.388454995989093
1.510000000000001,0.422625964200133
1.560000000000001,0.459333193212123
1.610000000000001,0.496769675466302
1.660000000000001,0.535734421825463
1.710000000000001,0.576229504307624
1.7600000000000011,0.618256494334831
1.8100000000000012,0.661816452142295
1.8600000000000012,0.706909918972187
1.9100000000000013,0.753536912914984
1.9600000000000013,0.801696929040241
2.010000000000001,0.851388944244076
2.060000000000001,0.902611427037859
2.1100000000000008,0.955362352316110
2.1600000000000006,1.00963922097528
2.2100000000000004,1.06543908411117
2.2600000000000002,1.12275857140303
2.31,1.18329920325601
2.36,1.24402446792384
2.4099999999999997,1.30631726596165
2.4599999999999995,1.37017832274579
2.5099999999999993,1.43560805765255
2.559999999999999,1.50260655686042
2.609999999999999,1.57117354642692
2.659999999999999,1.64130836648518
2.7099999999999986,1.71300994741619
2.7599999999999985,1.78627678883324
2.8099999999999983,1.86110694216326
2.859999999999998,1.93749799752978
2.909999999999998,2.01544707553635
2.9599999999999977,2.09495082442153
